Id,SalePrice
2658,151236660.36489317
2718,171842564.45452136
2414,198337719.93706498
1989,125801445.34660469
625,149955254.58311543
333,71354081.17945509
1327,122863755.11733697
858,136896895.3458139
95,109045402.78792799
1568,148068724.40245888
2482,125214102.96014437
1364,116196720.13391505
2584,160311429.01925045
818,191051264.11115658
2673,164420103.7938425
2089,123547731.02701047
1297,158645914.21469998
790,132391875.75019407
2616,166141837.13395754
720,210327723.6010235
222,121919114.48856613
557,126044616.88669735
1148,146444567.57296866
2766,220163731.67956933
534,145003405.90170884
1452,107829075.62852491
630,166829424.6391506
2648,140000416.29406294
125,130161007.61461286
1904,67930004.01891609
1670,111318929.82862884
756,111026158.93783534
717,215304162.8852995
1032,143826344.13112786
852,167313865.50055927
1731,169360998.98420098
2639,117503406.44856437
2071,119253916.69417882
1267,116885077.84896514
1851,134090598.96200186
567,97203368.11200143
2439,168803627.4367292
1898,130358177.82013765
647,174901759.95123714
2256,114721239.96579063
979,72862808.82028715
1444,169883055.07893142
2485,113967179.41727857
157,100597815.19257411
88,116281480.42466302
2003,132816996.34081629
186,158494613.32618633
1425,169623457.51478752
2695,119825643.11920731
738,103228261.73926911
395,123384467.52467893
1353,147174552.4041613
1878,139382104.29987845
390,152864370.45437738
1456,175670617.04819456
1103,203381933.40352523
1387,163152235.5195895
2070,167269639.69673446
1199,177731877.89586824
2479,131162743.03384225
501,195968314.0330483
2362,111491949.51154248
1718,107856389.83071305
2188,78069600.3525642
1483,91579108.87419558
2557,97708504.0332936
437,287277024.71880305
2224,273477593.4736912
1628,148561643.86132324
397,124544387.14322394
587,221451856.73620272
2182,490259674.0999655
971,229377866.69491678
2611,136133288.0040815
1887,106569749.72631171
2399,216007684.74987105
2148,147089975.57666665
304,127550043.67954548
1997,92656949.40082663
2817,137413999.21769208
1431,174931289.73699456
427,222617987.3383759
263,115357000.08882609
598,197205012.72900686
2895,214472762.90892282
687,132483432.22139472
1822,116070244.8158558
2191,150035006.13848415
179,114424763.84911661
1009,107350325.58046658
2010,108482551.38628913
1991,145770821.68596753
1411,148091802.28530374
1721,121666077.52037746
1144,145573813.92679188
593,143185874.56216925
575,201380266.7983618
1249,190843123.588645
1604,107196158.50049934
1064,225921587.86936054
1923,156061558.28884214
1988,79029336.02184965
2325,131047079.29353958
114,230520236.90292248
2700,180757450.8742005
217,165895859.93531156
343,157599308.69086033
386,145522248.35076743
2005,144681580.66995636
2908,187829799.8514347
1814,201262564.33513308
2446,419702516.63429785
208,137023986.18127015
1679,84446573.83841723
822,184434121.39198658
6,153170267.50604108
1781,211382354.66537243
2397,185729796.51804423
2340,151869921.63251567
1618,174907183.93483406
2843,131201668.9406602
1061,210912104.05231467
2786,124556042.02002543
1935,124602909.41553104
1341,101853812.30439611
521,192879126.84176266
2136,127469402.92980094
996,147418060.19660652
227,155554299.6774495
135,147370692.78134155
1167,94038723.20272297
294,172698395.44505495
1776,153149589.82239687
540,166177374.67902648
1717,107841962.43525346
2303,137574782.35864088
116,148017353.73466873
127,132932979.0402961
1371,143877880.8943414
1014,310037529.04700196
1507,108691545.48043655
702,145180825.2440813
750,145929501.39516386
261,146923467.57506567
1559,116742482.8803867
577,205256188.3969586
2812,169161527.78992108
2080,152833592.88720208
1368,101912714.1874639
2376,112572188.81861286
659,116972818.1506651
1235,117401772.52144682
332,69040459.82596399
1917,121465449.82641622
2094,204294613.88008964
1460,174909813.88846767
1471,179788682.1854736
1509,147642495.53797942
1922,128887283.0310544
433,237796396.67479253
460,131725389.77523541
1116,172565200.95838386
1137,170657673.77283707
53,93416045.56016088
2354,170264070.19267872
1475,152743058.62701318
1761,296611053.77269113
842,123933579.77504355
2739,173600296.22768548
2509,85108064.72565135
1007,163373889.58331114
2610,154034503.3894715
1952,87133584.17689647
2719,161440484.85858324
2921,71289286.46722125
1966,126415509.15243123
292,145169697.40573156
1204,162337385.13538355
1829,225313216.359187
2419,141363658.58295813
391,149220033.60733315
798,127658215.71310788
481,140153977.26047662
193,145563433.4328963
555,134046092.40125194
899,127679873.70700279
2357,155634226.738697
328,74949584.82722333
1356,127878679.40632734
1154,101194248.17931232
1730,149200500.57801542
2249,116275002.68386906
1119,171443248.03909647
2856,145185731.17992935
1394,170733522.09323695
2587,120218371.9495806
61,252850827.6752722
2661,141316083.4394302
2711,132621878.19260877
1147,150993583.1170899
757,108131722.7501697
2623,106682460.35437527
2378,91210705.56103039
1413,131900571.23058496
1722,126321263.29669812
1112,203730841.60020503
1623,145901295.60792953
1201,155679832.87078154
1513,103835001.45492129
957,1657836166.8797798
1171,116526867.1226783
1145,144047929.54787943
2726,244354273.42072603
703,91026481.76494327
760,90337579.72107469
1964,115851166.30190153
2512,102521015.33770384
159,119480737.64897731
1281,136783103.01613095
468,162508907.0279646
290,115764315.05257066
665,137730028.2237682
1463,187362324.10063085
1792,167203421.6636381
923,176303211.47417596
500,194863906.8679381
1408,218407385.7611914
331,54563158.76261912
170,115687625.48479246
2192,111481382.2502643
2571,309828066.54841727
2314,168909890.239435
2647,94405036.40005866
422,236693012.73476103
2457,276148004.7339613
1838,108767791.91874014
2805,207183653.68793118
1645,155451442.8579148
1711,200136015.55684265
2825,182533743.12696254
322,208677659.70696518
2103,177956445.2175743
342,151568148.93709937
600,114138541.17317308
488,145377076.18889037
1725,157262444.36110455
2246,129982764.56321944
2847,135283323.35030675
806,164950107.74026614
530,164009418.431088
963,165177553.58469388
2678,105381698.69835724
171,120229089.87228483
2401,280077068.3203028
805,166231342.87126273
2259,241994999.3283277
1748,148122626.7260904
1361,146258116.78132167
1677,76764208.76242141
1406,145498851.81390154
2322,258817701.84227076
688,140774670.81621638
143,132348657.16465332
804,150655094.47672138
1214,143711259.02795267
2828,89749364.80176374
1999,153078862.94085503
2467,139835718.96854854
2665,134603742.89842516
1538,246984932.08900928
398,113158155.02361543
2822,183771756.7514426
2157,91758302.39416888
1856,198712795.29493305
1269,106893491.79426123
2570,127728033.41937272
2320,173263703.7326044
1517,157939139.1007151
2304,134684720.21554467
1312,119555551.70193295
2012,111058484.85649377
506,304059254.8221363
2865,217777505.10196242
2367,69685493.26276435
554,120475524.28252283
238,137022993.87385026
1954,119208188.6536745
2488,136866021.06459054
2291,71316043.31541239
1969,98146041.37025525
2725,182572741.12186262
1482,91579108.87419558
2763,150984093.21774033
503,164221582.46766952
1584,163494466.49559966
1531,150390068.8132834
2210,143695500.0983818
459,155012376.71805698
556,116747572.92495179
1347,135585724.2129617
1290,82509056.9582394
1388,123059939.57888351
1571,1278992893.804247
2754,128506102.1903052
765,141387849.61746445
2494,155493591.75259933
2870,210963257.34268746
7,115194635.64252396
1114,191048005.72593263
2418,195298620.6964144
291,142785039.46395537
18,193242333.7303073
39,182171829.64990267
1001,136144506.33535886
2442,163300285.51388758
616,114152465.52287418
2680,89865581.85820508
1414,129357322.77767262
289,114859073.11694291
40,193089384.43433148
860,115828754.82208255
409,98673766.73753625
673,134641494.93671596
2427,91953161.89968565
2036,155833430.4061191
2564,143961534.86152798
642,167794790.91800803
1008,184161617.48231
1908,171608056.28246257
2519,101086423.02926323
1369,129111374.02584776
2855,133068883.10637389
712,112058027.96861291
1943,173246724.2200732
1958,147681677.98434815
107,88991006.43174051
2295,333054201.1063431
704,140623161.3343027
676,150638700.6144559
259,146379601.08570728
93,192669203.8336362
106,143298028.08239245
2315,154743758.55869395
1050,124492186.04817446
1095,186460547.00677317
2709,151621869.12945968
758,122799558.60902372
1496,124532944.23310253
2370,75239572.48190825
2458,165557740.16903412
2733,142183570.78065464
161,197742415.2442234
726,154311702.37982315
845,149837222.49574298
947,175830909.99099138
2232,130497574.53314184
2563,141426974.74437577
2299,281922028.89502805
211,138675791.036213
605,188162956.68541944
1478,154552180.43525574
2247,124781919.47983225
2274,356941496.7185332
2869,184643074.0560232
967,158060592.68354234
2656,107656258.26970637
667,194504966.21919182
1042,69986932.22601745
2023,182553726.05618396
2447,201210649.54465654
2055,116259857.5591957
2275,214185802.1447583
2204,124862495.62750532
1563,116969497.99958372
483,116555889.6380648
796,92728755.09432153
1526,188850251.8782017
2042,155188299.90629336
442,206582026.54459468
1693,214366605.41725078
1468,152515008.78781083
1430,166336842.34291637
2605,178961606.0938506
1529,125543302.20283447
335,256570163.88053015
1287,136700874.4817063
31,71636454.38841213
1785,172514008.2224798
82,138042046.4067663
2620,163235726.80498078
252,159616686.38061708
721,72390327.10396944
2165,137630510.1951087
2316,157342439.35290596
775,114215169.2114041
1558,213676363.7816182
17,168840508.928021
1022,200439622.35421628
925,120846742.17287028
438,187664308.3007831
1270,131696529.79458794
1272,119136106.55857646
215,124036446.15217146
266,159254139.8936645
2402,174591624.49767232
1250,122642868.94084743
1984,115179761.25629489
1279,130518957.48941565
377,199580264.2526667
1252,132714178.77725457
2156,172003001.36087605
499,211107509.06286943
1374,218400641.57951695
2898,192013825.92146376
401,138157604.26377678
2721,182599119.50553524
2078,198304461.99387974
2589,160525781.13776073
1946,291637817.23710686
1334,104357340.13249384
2781,197838502.77797073
431,206449521.55287436
576,100998435.87502143
1474,146219079.0866074
2254,120309517.68644027
2155,181143046.186939
885,121911462.81534187
643,121519943.26644896
1944,131901031.90640987
480,152583585.3225364
2845,144786922.59192535
2387,220910708.93447134
2407,128273346.39239906
2527,164503726.95676467
2514,95268389.11205065
629,180441356.6326876
80,153370982.3024272
1876,143746426.3487407
1546,102582450.33592917
2518,155598130.6331688
2347,145574981.10761783
783,259634283.15955326
1322,145193175.2268061
194,86766868.61977421
1770,206331804.65227267
2143,114411473.71115501
1229,186029281.11887354
511,178377599.22870797
46,125212824.49071305
1348,129409048.90148394
2465,139104897.73744643
387,149667105.46356916
873,145665412.17732024
1918,110430857.0046934
2764,162154099.4175617
2184,105967543.81693766
934,77425905.86127876
1920,121528385.5141856
2631,126798282.9304222
1768,340133049.95517445
2040,106335161.11916624
1749,174347401.41394216
834,212103125.9157805
1457,176504482.15982577
79,102525578.36755063
2302,113689224.013498
1817,127461416.6309607
2755,183368225.96659723
359,139035154.945017
2059,119102403.05379057
2092,204056981.5359962
2516,139952967.38970938
150,139629938.77051055
1656,158465635.30531836
83,130064967.73142262
2411,150208316.10953972
795,128337630.40417302
2312,195767741.96372673
2917,54884565.86697839
1624,133449260.20140007
2215,208331442.49725437
1211,132486468.49565
1485,91744355.74665067
1024,169810334.10572192
570,107648279.43494432
2874,122463298.3996898
700,144114664.95223668
2756,152296866.58215544
2022,151181319.68123665
583,171643375.0658364
2392,200025366.30047008
2424,101127500.96670121
212,140706204.8667977
736,110886750.22587697
1610,170224644.99646598
890,143382183.2738978
467,165813780.10487622
578,169017058.54309404
1747,183438554.41723168
1149,130496129.34757921
2758,193607270.43570283
857,106769769.51098147
2219,184554503.44972774
733,121148441.04173312
2909,79861052.43563479
1798,174233560.43213424
235,211645351.28433213
2366,88139722.25225957
1027,141405516.70998812
1195,123100357.61902751
1303,91504863.64988253
148,156427995.2718388
608,153309845.39980865
2515,135668925.04529962
821,176789306.83011332
2500,222984390.67699474
745,103406759.42820011
741,124420827.48364738
1611,486277925.47733486
2532,130466441.40848616
1081,118408578.1422914
1692,236595799.84533542
2520,93031509.10667084
276,134589872.19099146
1992,138391977.7820034
663,80152937.70487873
418,69634162.9032669
1733,153794481.34962133
2359,142117225.0387161
253,129884105.08939542
1518,144479385.68993595
2035,134723823.91050744
2919,66347872.601202294
1540,184152602.88033918
2120,173625091.0102936
1674,107996787.85261567
256,130229285.95835947
2361,122886117.0023969
978,56717860.94050781
2280,111664180.00420934
2095,173844737.35656175
1709,208356664.26454535
2801,168147619.6781466
1246,137354595.46886432
2373,67492332.97450747
1055,194236540.88225478
2017,112646336.53676096
1099,174389886.8206478
1344,87489968.8107108
835,303327958.0570163
1117,172380580.6714919
2043,81593602.8198466
2085,89673378.33796182
410,93766393.79131125
2650,95857027.44024287
2867,183718038.891807
1668,128945901.36101948
1161,99746652.95056504
2122,155209105.03122118
2539,137236905.92424986
1047,96395856.39424816
1445,124700498.72070938
541,156932511.38392776
569,121949350.29410434
1276,112308525.1162736
918,112891152.04265906
326,167498210.62480968
1936,118957222.13661334
895,102286197.98364927
257,145174893.2434497
1241,179803270.2015646
1545,106644177.2432146
1189,156210043.73907086
270,91659350.16581537
2066,229767343.95783073
693,140248467.09116873
1259,193456248.46004617
2916,168377312.60471025
2321,215992302.7490267
1977,92200610.8895757
1895,154167987.53619394
1240,140227309.59971103
85,157100778.7754741
1823,120521427.64608444
825,181107551.96900272
110,143645752.57421473
697,178068856.81432456
2297,98879712.65405679
1231,127875208.9528022
1355,137665834.6580125
968,214887448.50276986
584,187644444.58712223
1315,110414523.04200922
1606,112287468.90156837
206,120413420.65325545
1685,196853557.79049808
2016,115483547.03399383
869,171672581.13715944
2135,146192821.98796314
2346,216313858.75497812
2430,119501845.55135581
2198,127763386.39067724
2652,108105148.77968603
27,122828392.18053885
241,148820027.7393542
906,110928555.19314502
1506,142958497.1182468
2098,209881836.78651857
1435,145771632.35672358
2213,153919472.20694873
1274,131319721.61064361
743,88693929.94366707
1737,141455599.20563528
2797,184106100.20750555
2185,100679423.52739589
58,125383477.66333953
830,130161910.43316004
808,117759261.48251496
680,137922743.50248954
1153,116629973.27702957
1291,112806080.04939461
1818,144718838.15820608
2161,136041343.41712302
1883,132149389.01943423
350,171512059.98396373
2473,157575898.3690841
295,210977376.10057098
293,165282024.81431162
859,167866758.99844256
288,113424458.17680402
1578,138886663.5933473
102,101661750.29815175
2831,100724983.15397581
1030,157372263.55178958
2551,147575728.38309383
1286,154184915.44738242
958,196356460.7550556
776,124126557.06786545
72,159323692.00058892
2263,176243771.0453754
1866,130116095.3057705
2876,97507736.674354
2146,170597526.40480527
103,92086611.56807375
1500,89740882.92300802
492,260586040.61411718
167,127216672.03335485
2597,93554125.67778572
2685,107007569.77035856
1035,137806276.68696615
1220,89909526.3208201
2602,130333513.06327632
2159,147577555.7440296
695,161654616.1455125
1109,179349667.51990283
640,226471439.01986417
1652,143862605.71803406
2090,262740246.02828044
1188,172920412.8338044
2345,217704476.60596505
1059,231374613.9338526
2751,184411120.75189087
128,174654417.60142958
1523,145517778.812281
2925,219811318.62107503
2145,192013445.55251762
1121,143738086.13395864
566,152376396.41289395
565,173273180.32479006
1331,129731796.63212076
2928,131618867.58718632
156,142974392.80587065
797,158683995.31870165
327,71881542.29794228
2859,230206598.52621397
1453,104923938.91062032
1762,219140665.6963055
1868,165292164.96117172
1760,151726870.01904508
1113,185650116.00503212
1812,170169700.79656315
117,148394575.9482479
1142,148876651.73463014
2342,244564005.3429791
927,130801700.37920617
2478,150815568.05277672
655,92786862.51762101
2064,116274574.12407091
369,201376536.22118944
2239,120171088.99347864
2732,119332159.10172226
1653,158243058.50730178
959,180625697.9649365
2395,202898499.1457654
1412,120310289.19177897
271,168027839.10821855
1484,91877218.47031437
1497,121178422.2009783
552,139824499.17175508
2,143796234.86997762
1855,201334588.36974114
4,187353916.675907
2292,150086384.80432838
134,126656266.69927457
646,144148563.881604
42,186849857.63546604
532,151041324.74792042
713,98410351.28529951
2561,136055284.2765575
2360,178400868.71734002
1333,97925051.60210465
1407,426879535.03139013
2892,300484608.0614098
574,105468379.001453
1227,146724978.47561932
2591,256217470.38100967
1476,144035520.1555132
1125,166027236.54707378
1446,121275176.52836178
408,77002068.39194585
1101,215779920.8230604
2251,161612885.3793422
373,168217746.15725884
2554,130641689.1653781
2382,219602614.366966
1985,101436262.78113917
519,141284122.1465844
1093,161084073.89194924
864,189192822.35621744
2889,142048424.80896163
2308,193977142.0220354
986,175391113.13375446
1302,155836304.29735312
585,166938314.6050366
2708,123326393.96460776
147,145709481.5527712
1441,177677974.29997373
383,160730087.86160326
285,138979782.6261066
181,126185882.3862364
358,144916922.17842773
780,199353034.7527835
258,150920335.3302787
1865,163826825.79358
692,92004007.73843364
2902,198619973.75539175
508,188838423.912212
2638,149795879.39066797
36,91639964.03539573
611,168374316.27201822
2281,252560909.22786233
1678,77917568.25876646
1696,239281943.06047943
1557,90803810.06378601
2180,125037286.93676797
1726,124249203.11698498
951,128086516.50842439
267,165384639.19981652
2706,156915733.72829777
2221,195889938.86645558
1357,147318209.17766118
2901,207039372.27082768
347,135107702.07374185
2164,137721379.49592027
1586,203712447.29035732
360,124530066.21710418
1769,165164661.6163689
2617,151177815.80849105
1879,163804731.55760396
991,190755107.8835191
1535,134907040.88797027
1191,158488761.75484043
1579,175557551.80069453
1882,151042791.60176602
1510,132987860.00524828
2196,181246773.7136307
1845,93081711.84079088
2336,242632940.43172878
942,106330339.66007464
861,104544548.0004408
2555,97750068.62616064
1392,170449710.20077568
2099,170337307.8661255
1543,74554885.76137368
948,196247652.295248
1239,146800983.79028025
22,148250343.48519582
2796,163476079.54903272
2747,156608891.66514188
92,211258849.66935706
210,193159508.31567982
1858,102699371.4762038
2228,94686846.64113107
447,156940795.59741485
827,155291094.3583442
1649,171758898.95390418
682,123837956.29202193
2698,111640181.08162412
494,126311587.72108847
214,124223334.06880747
2441,195812584.33011386
2679,103308698.47321579
1336,105054735.67073835
465,152864470.1327104
1524,129994972.98358129
2543,128686126.84751335
631,129576416.92038065
2452,195614530.59563583
228,157038913.51413006
126,180375145.49085817
1092,132007318.09934509
1122,142883624.28696564
932,221414104.33876455
1980,134662467.84425628
2171,139024226.20206404
551,147562703.93533236
2768,167144238.86696056
2056,108516395.89501241
1159,205814053.3129384
2645,146131187.30055538
1174,88987342.81530829
2266,184811775.05596715
2462,226073750.51454645
1219,146152546.82526553
2922,184625352.48915336
118,144243873.78751972
474,92605612.46248859
2576,158610387.65512535
872,189644716.25800446
1077,124977287.95804894
1536,120612365.47880545
1150,126193447.71605392
2341,189028290.90518564
1931,146531869.48797798
2785,131036722.50620848
2538,132368793.48468606
597,165952969.7637563
464,96428004.52957849
233,254843439.3800077
2169,129979149.08256124
2123,143101547.56829372
1867,162474833.76886377
137,252924751.88887408
515,152655156.4829562
933,73333293.75865561
2784,156493491.96083432
972,105525863.28717962
599,148709914.09915826
2614,109034052.23067047
2582,116038762.7216764
1409,240415257.83612925
175,116897023.0017946
352,135819568.58665487
976,57141966.13382028
2134,164514635.24707857
984,115486857.68640396
2396,198657725.00385836
1673,81832348.39302954
404,90013308.53126901
607,147469696.4255801
814,127029192.02352592
868,147926733.9551933
2271,142172345.02451557
1633,134075428.89086933
337,163469085.3650592
2765,351386712.9026942
1746,198155428.8812549
368,203758870.73097882
2806,144963527.98570526
1662,147642931.99549782
1234,200244745.39297417
1373,125030358.1256611
1672,126556114.54373026
1939,118935983.1352854
