Id,SalePrice
2658,159727.99599663645
2718,172395.12443863554
2414,203982.99077351578
1989,97706.22334036382
625,164075.90349762933
333,88307.92213311396
1327,90989.0976446704
858,147044.8674767099
95,187803.32093846798
1568,157465.61775759514
2482,167711.87973752525
1364,115869.53122578363
2584,149793.1153662746
818,317626.8240034444
2673,166937.96412904595
2089,122261.58312416985
1297,159499.9472534355
790,113910.80164553702
2616,175636.62024226435
720,194629.67711604643
222,145253.0237131694
557,136236.7451080489
1148,184468.34373498755
2766,184700.36721366062
534,169866.86265897471
1452,130075.20543708024
630,117245.57039416325
2648,144985.84394301113
125,165791.66579228546
1904,75898.42617953173
1670,107278.95862989
756,108022.32484473893
717,170944.7242575091
1032,149549.59775009693
852,211536.83748586965
1731,187295.17616832384
2639,103486.48501124175
2071,53979.95822917449
1267,129118.95144042361
1851,181811.3245718598
567,157702.2653552841
2439,199150.71781309159
1898,147938.66839252436
647,142409.55421063816
2256,213471.53112442698
979,89009.58848352998
1444,215591.85965117428
2485,109410.48106594884
157,126712.4243247211
88,124330.08456303226
2003,106587.18936172
186,199841.01435636543
1425,233751.1077459138
2695,116977.37621695851
738,120703.49990434991
395,156545.25070273096
1353,170462.70215644012
1878,133262.1095232988
390,169367.52321616234
1456,238874.4826774971
1103,308513.5258484761
1387,108537.98767638102
2070,138083.98811997776
1199,184085.6670154503
2479,181346.72878048534
501,313658.73741148016
2362,97810.0805184528
1718,212724.0171586338
2188,81245.42760027433
1483,149906.0659481123
2557,94592.64210586343
437,378278.40206736093
2224,214661.22667475545
1628,175614.1699328574
397,145524.9844291953
587,191924.3727506668
2182,478385.4308637413
971,142072.77785616124
2611,146608.55150125665
1887,94863.52899355523
2399,371837.1904452747
2148,188727.55306221812
304,120858.18687505135
1997,119164.41429869796
2817,117362.70483176922
1431,212517.4854797445
427,380270.5931442167
263,129005.11375070096
598,186368.80409616558
2895,228581.75026555208
687,157301.85808193288
1822,129245.13961649244
2191,91024.78331679199
179,115364.2195684003
1009,244167.10910267092
2010,133917.62306831614
1991,144438.8537987707
1411,141022.1389520067
1721,249069.4351421243
1144,194244.79941260675
593,212273.1012750168
575,313581.055649069
1249,169157.78217448865
1604,118943.2034226784
1064,401620.129846207
1923,149735.04567895678
1988,121651.19910482701
2325,177975.09459037392
114,203394.55636320869
2700,168055.03500603698
217,140843.1519156025
343,178850.92437006626
386,216545.3581572955
2005,107653.2845962958
2908,136557.39386468707
1814,203850.5744254078
2446,451117.6735876679
208,152956.66422165686
1679,102148.0554298904
822,329985.1138666776
6,196610.63413144404
1781,379402.09995714144
2397,315162.6223082226
2340,325820.37337885064
1618,185935.07618632668
2843,113042.71188571956
1061,390003.00400047237
2786,138253.3739684705
1935,134023.92843114096
1341,136117.6364104501
521,254579.6759078364
2136,139987.09922363178
996,186865.73560871615
227,146712.75128802063
135,164209.08761861536
1167,176957.3198565658
294,230377.47024145524
1776,201817.84456696687
540,163406.62742526783
1717,212722.17871237604
2303,128377.4495279874
116,183634.68183600588
127,142642.85617374768
1371,128615.26685030037
1014,165700.95419429615
1507,96352.81687103899
702,147072.3771706078
750,147524.6143124915
261,173081.9574042894
1559,50233.5018987573
577,232766.80486894806
2812,196300.07622927357
2080,148978.1343991158
1368,116309.8771897821
2376,116851.24849791231
659,105335.64797773014
1235,140144.54224525345
332,70618.25553490617
1917,138684.32029628858
2094,267039.0396608419
1460,242855.0776437358
1471,201798.70465733658
1509,114283.24189548672
1922,131968.766735923
433,413243.8817570376
460,311723.45295858965
1116,255558.34807920258
1137,169879.7702855582
53,182963.5478779223
2354,239962.75170978042
1475,203089.81135296624
1761,478213.54558364
842,141554.43574668863
2739,155952.87136089115
2509,162311.15057520766
1007,194860.76756174432
2610,175217.34211831645
1952,119766.93232630345
2719,178643.84008021466
2921,70936.29868535674
1966,134807.0207965856
292,98519.57311987551
1204,198001.77260174358
1829,259977.74231961265
2419,184290.03563452128
391,159951.43759208778
798,107931.71908750269
481,199647.36538818618
193,191081.19475032098
555,123031.64724436519
899,61093.454137878725
2357,187985.9121044136
328,109939.32942898385
1356,129078.18008358718
1154,117685.20397326024
1730,174246.30084638635
2249,152206.21472505643
1119,273156.61906841735
2856,117484.64556628477
1394,135483.4978907482
2587,146436.82262341725
61,343311.9512513194
2661,168761.17281820183
2711,137729.19333004963
1147,191463.55401001393
757,134664.26117723307
2623,77857.46742650645
2378,144811.56734324666
1413,135019.95457893412
1722,239836.95168578578
1112,229778.4663471172
1623,187265.9266190799
1201,198172.52427843725
1513,102382.34457021113
957,416962.81202418776
1171,263250.6642426194
1145,195709.0780028751
2726,221293.94194374152
703,131918.8310679671
760,93692.56440927554
1964,150443.38623272057
2512,199913.4177745647
159,136693.33065361262
1281,177431.08302626864
468,176464.29651322565
290,113907.26236526424
665,103329.46093373909
1463,237098.6904542062
1792,223593.12139039487
923,160570.72743988945
500,293312.1227865786
1408,159593.9083965962
331,75962.73548533139
170,122650.54010417114
2192,77361.82619036897
2571,252596.1425665241
2314,178153.48327407474
2647,75636.40169339301
422,414574.7897277826
2457,358298.20419715904
1838,209271.9770115005
2805,223550.3152000032
1645,174636.9441512475
1711,328052.05313586385
2825,231839.00903013232
322,336492.3050844113
2103,238261.2799645817
342,121423.43424432515
600,114757.79798798054
488,179511.81940746412
1725,329149.3747993468
2246,243758.30086516903
2847,145615.48251327756
806,223166.23993411206
530,220462.14148724475
963,195247.79850861058
2678,90402.45057760843
171,86151.06125602475
2401,411354.4916509149
805,209317.981005233
2259,243265.94065029244
1748,199293.54237178247
1361,140042.98199662566
1677,110690.19539188268
1406,139828.8472198164
2322,244460.16053572006
688,159784.4045103076
143,129809.87044725695
804,201218.10159986455
1214,161562.6915014321
2828,127461.81673381804
1999,174990.2943922563
2467,194293.98637919698
2665,167954.8773723538
1538,360306.54679294734
398,115440.07898634975
2822,119977.56713824463
2157,149393.46756918437
1856,216967.7450973806
1269,104246.94401127077
2570,113439.34140351496
2320,230003.07589428884
1517,151069.27505274222
2304,125930.3339132081
1312,90120.96293735434
2012,144116.65145493473
506,279481.58322848554
2865,226641.90528904786
2367,93868.35947027453
554,81640.0959217333
238,121656.30793765176
1954,124939.5262010583
2488,158324.73828172637
2291,70746.43554580561
1969,94863.03734655166
2725,149153.92385631648
1482,149906.0659481123
2763,196844.27216979687
503,269315.3109819188
1584,259096.0062200597
1531,170971.05628465756
2210,208766.6496260257
459,346329.6571391035
556,130589.42870293953
1347,149152.11987829127
1290,63639.07450614788
1388,108830.35904500796
1571,314666.4295656256
2754,183579.83581763075
765,118171.84654882911
2494,125700.45087869791
2870,228810.8574274989
7,262934.2862831936
1114,263971.083247319
2418,250471.36356862658
291,153924.22254175367
18,376893.7232549172
39,364864.2505765562
1001,291937.6843069433
2442,216488.79225624015
616,122631.12585667195
2680,62890.404153722804
1414,118593.05121976789
289,132889.8326119074
40,266645.80379565584
860,132331.79961555696
409,131311.9913704045
673,145640.5136823851
2427,182548.81827650208
2036,189684.51286417246
2564,132189.86752494436
642,167460.70434547774
1008,193821.40464142535
1908,165957.48281169322
2519,179072.51847097464
1369,106795.29682976147
2855,188469.23605596856
712,91790.83847076748
1943,119893.35515777546
1958,117586.14572701592
107,154241.74425447208
2295,195071.0980413116
704,101758.47153681016
676,135189.6488403004
259,197088.19338186982
93,297669.20627937966
106,229936.8479701907
2315,177289.68696681038
1050,113121.38797653548
1095,204545.40622859786
2709,154857.32287161273
758,145901.82782655954
1496,157674.22470030747
2370,121504.11444546166
2458,275237.7644810331
2733,121360.09124753077
161,198888.46540002606
726,159641.33316195023
845,206112.8486064918
947,239987.7994903304
2232,130168.24122082954
2563,151926.28258120758
2299,171580.765728193
211,129704.00428369362
605,178933.58895850542
1478,219005.14651348104
2247,248312.22749302862
2274,160163.13568151172
2869,226237.51595942385
967,214004.43523601966
2656,118397.64883817162
667,229212.1040826178
1042,105525.62243273365
2023,171134.99849603476
2447,406806.42819792184
2055,118706.83076542465
2275,287842.43827717844
2204,176080.54476810538
1563,268555.62711984734
483,232406.0980752732
796,123820.31720957975
1526,192041.496878732
2042,133698.12420052488
442,369428.4235642075
1693,362011.7001630936
1468,213213.37890773814
1430,206360.54290403367
2605,160451.83575647068
1529,217284.72665557452
335,152906.36838287872
1287,126352.94920563907
31,94091.84417959023
1785,320309.571929744
82,161766.05148394592
2620,128465.62254178675
252,199831.6502195889
721,51031.30728323548
2165,170586.85728316323
2316,183436.93900657643
775,134077.73019811953
1558,97714.17253156961
17,217074.95628902304
1022,204765.46897515305
925,141204.16265632887
438,299585.4111183563
1270,113645.75206728163
1272,119135.18344279216
215,139775.8455438444
266,224429.6946837023
2402,309125.12570191454
1250,135081.87615695503
1984,136833.11965607246
1279,146766.87938960525
377,245114.50971341156
1252,118687.40078449936
2156,240304.2215530862
499,328204.1867327003
1374,126242.78158824611
2898,249030.48229241557
401,117965.48085472756
2721,140871.12055319105
2078,243160.32639244304
2589,127074.89795775933
1946,243205.34677469078
1334,130760.0950888989
2781,219594.10174187482
431,392640.6730204618
576,180149.09594243567
1474,213229.06626234006
2254,138913.24111597566
2155,260902.83201829484
885,94211.26062419033
643,148917.12750702922
1944,132485.97068002936
480,186777.34145656112
2845,83530.00346071401
2387,328538.634302831
2407,213664.06276904896
2527,181808.7131549447
2514,167072.17923362518
629,140022.4413684213
80,209042.90833353216
1876,136343.05889763823
1546,119109.8440082015
2518,200170.18630556646
2347,163292.42251864506
783,244862.02592377458
1322,7630.312323633116
194,90988.0108685667
1770,308030.5679828391
2143,166527.24222285917
1229,199112.68943933956
511,264068.97557230573
46,230716.21079455852
1348,146465.49706571456
2465,194210.55036847014
387,230534.7046821192
873,204716.03592038376
1918,124221.54105434811
2764,218719.27162017964
2184,109308.83164434321
934,141164.65410959057
1920,127754.0506788377
2631,149694.28179240297
1768,494971.6785595531
2040,118913.00136950694
1749,205526.00269909226
834,226302.85857390182
1457,217975.99469734705
79,122927.87020418665
2302,125081.6227429224
1817,148932.4097076417
2755,242025.07075382792
359,182028.25639255287
2059,111584.33572213957
2092,239778.28398239263
2516,207903.77055836632
150,120493.49986367661
1656,104568.5601629368
83,91130.80033153028
2411,185784.05228981085
795,45820.56082779367
2312,222009.64836598607
2917,132951.55784616107
1624,183499.92936134653
2215,266388.61585491686
1211,136854.78845765034
1485,152206.8517305859
1024,180085.07270647387
570,191613.78162866668
2874,153103.6644796608
700,140535.03120464727
2756,192885.50841723836
2022,166244.4978794593
583,213002.7089062517
2392,388562.8602268506
2424,176591.81932688726
212,108449.00331077923
736,121902.82543172967
1610,173933.39294401277
890,73759.26954024413
467,174537.65030326287
578,242958.31073367607
1747,191350.93080753204
1149,173208.62435705622
2758,217526.96598710667
857,148041.20615830238
2219,240143.0750659029
733,85779.74777230003
2909,102772.52471598855
1798,253319.25482690858
235,121426.62458962633
2366,126375.06426831638
1027,133665.0859433252
1195,145908.62782954203
1303,31660.71565755969
148,167623.16867285676
608,136414.1933548561
2515,193299.5433710775
821,299574.595548818
2500,282162.134073882
745,101096.07410543831
741,129564.10568239272
1611,115349.50788142777
2532,129373.20095329767
1081,213981.84283592424
1692,409675.5030738927
2520,165337.2422015511
276,124226.60830201069
1992,127269.27230103314
663,50277.80201254028
418,122264.76594148949
1733,185471.47132444894
2359,159447.9311893863
253,199014.5939281053
1518,171677.8372031079
2035,123995.03385395836
2919,70529.26054186723
1540,259088.47697389591
2120,157130.13944344467
1674,159145.0361577716
256,176146.15711940476
2361,93161.63478801539
978,67386.14661582676
2280,160141.9735057595
2095,217707.76935386576
1709,343780.1462428414
2801,223013.21880308958
1246,122385.984097215
2373,93098.09159607603
1055,318822.1304772047
2017,134682.6521039831
1099,286965.02965159935
1344,94956.32656353177
835,217046.6221370611
1117,239080.35899378546
2043,101811.42839494918
2085,118871.11278986884
410,140095.42887719162
2650,121106.55758713488
2867,195754.24916088698
1668,110899.0123453245
1161,171773.38385249104
2122,180023.34286963544
2539,146293.57637942245
1047,135628.77662139747
1445,129626.47396499943
541,135890.5349773037
569,197996.57464255905
1276,116515.14734884456
918,165337.54158801923
326,163922.81437836087
1936,122825.4361731573
895,81285.862416083
257,145270.04000207118
1241,170965.40307804046
1545,121032.02720475022
1189,180568.66554400744
270,150205.4569358296
2066,205827.12144391565
693,103312.82846730086
1259,201161.3289540572
2916,146818.0644493897
2321,263311.02459058026
1977,79507.67602101853
1895,153549.9078403717
1240,164844.68211088458
85,148228.1801329502
1823,124199.98641057708
825,271615.4383992875
110,212830.30098480848
697,121197.6501792327
2297,122856.18021500541
1231,138558.06419239857
1355,132733.23301550013
968,351084.5669118662
584,217260.15184634412
1315,131921.96478808916
1606,149203.37907097908
206,81544.56767141889
1685,363967.18761319015
2016,125637.35760927736
869,201145.7741818803
2135,134817.98670849332
2346,183147.0569305952
2430,220742.52938339335
2198,89032.9742968228
2652,133405.57001803
27,115921.449447933
241,167906.82404396147
906,93108.01778824208
1506,137193.7835103867
2098,346318.51726895885
1435,202490.4076407405
2213,150138.17380674207
1274,152195.99734460388
743,-10413.229119155323
1737,195602.72174344212
2797,255425.74416216114
2185,70643.85910716048
58,193047.85046103748
830,199092.4263290699
808,129969.20968061988
680,140126.22383562475
1153,100912.42245790898
1291,121647.58883396327
1818,154178.0455679847
2161,185302.36161257885
1883,113155.7603673751
350,340031.1798560367
2473,146669.24582308414
295,226565.5337183877
293,177516.49771657365
859,137045.9345387217
288,42782.37138490449
1578,169635.53581449413
102,194880.387968841
2831,115851.39799356309
1030,152337.4569422301
2551,153677.79598543257
1286,145878.2255249709
958,337283.28866579593
776,131988.89360255562
72,229751.34350666963
2263,233723.66243690928
1866,156783.9194092144
2876,65340.53565403377
2146,226779.76659864746
103,192096.46848279133
1500,130973.33404598734
492,195477.69792804227
167,134466.54412327823
2597,113757.09444557584
2685,95647.42533003888
1035,163352.7831261108
1220,73845.67904138751
2602,162048.00339713308
2159,201340.45574811823
695,152470.55516132445
1109,266242.7835702774
640,180906.62545158237
1652,165184.65009341342
2090,196015.43188513804
1188,176917.6941464527
2345,233101.25893661182
1059,405617.38922190294
2751,230380.6454010898
128,188416.89923789457
1523,179800.67750437465
2925,162176.4561351122
2145,269122.4551267285
1121,219790.67921822076
566,259533.43741989078
565,270894.43027520634
1331,140184.97362208087
2928,131182.4535635627
156,149400.26139411575
797,128200.25039156748
327,87987.42470271
2859,160204.1774865581
1453,123238.17571257846
1762,336108.1131240621
1868,205026.66486284987
1760,175261.58700794796
1113,256846.35016704968
1812,194783.7046735409
117,167359.1705379606
1142,200560.63040991803
2342,402045.0293731536
927,162695.6258988611
2478,181506.27279685554
655,75148.04978249792
2064,125012.4240238854
369,297702.05299485626
2239,102519.26840943599
2732,198693.270173957
1653,171823.51736302348
959,230410.1476924232
2395,376902.6539518145
1412,108075.4184246856
271,231890.32696117344
1484,150706.40013873123
1497,134957.63399384008
552,165465.92090437328
2,122428.29199472547
1855,286965.8704330964
4,255370.99631148577
2292,151965.55859792524
134,135302.82793435943
646,105238.03234601789
42,361542.3434210202
532,216168.53751723014
713,99103.74514580774
2561,136825.38094984705
2360,137067.46415386768
1333,134244.26174962695
1407,233689.75310593308
2892,274494.44998870103
574,225399.8781597038
1227,178661.0728950851
2591,170832.36162431736
1476,209060.69278952642
1125,270999.9326049851
1446,154903.64963094145
408,116234.0336291258
1101,311920.9292863157
2251,192556.4776348417
373,188062.21080292587
2554,116391.50220562378
2382,269104.1863281956
1985,86991.49623380124
519,217836.2874558696
1093,186053.33518730744
864,232570.7280392116
2889,147491.3040522706
2308,199983.71358004003
986,166538.43014570232
1302,159591.20800045552
585,160602.92679997534
2708,157957.40869247948
147,136430.136376646
1441,209623.9102800109
383,191923.48300558073
285,136583.93690209638
181,111840.76418339426
358,193065.2116780876
780,190423.56834154483
258,204007.61762917181
1865,205544.045145088
692,118521.18005064467
2902,309392.8844051283
508,254893.66743233486
2638,134473.23348990758
36,149186.83538555028
611,171356.87089536525
2281,142381.56565409712
1678,140299.8452581109
1696,406869.26964601397
1557,74214.43489378365
2180,153236.47100037558
1726,247206.79091077705
951,140136.78735299374
267,211339.9304226141
2706,134920.59470556234
2221,242534.76155736833
1357,161931.0978831998
2901,294980.9750198468
347,195169.835308225
2164,193321.41540874634
1586,285774.6990445524
360,160433.02148811438
1769,255790.7219152014
2617,155922.41103298054
1879,156055.5959014917
991,210118.1397872324
1535,132978.09933076834
1191,153271.8046321019
1579,214955.05382498563
1882,153330.22114077664
1510,111027.46952692606
2196,161913.78783070645
1845,183305.52619755827
2336,414160.949315654
942,82331.66662486165
861,132785.15792288864
2555,118963.24838109373
1392,139786.74858820986
2099,237212.60958951607
1543,125808.987670628
948,249913.4590692895
1239,161892.1940032381
22,179992.2122963922
2796,241600.7609038715
2747,170290.99911384238
92,307555.00926265365
210,177705.05480863457
1858,190663.7603767251
2228,156187.11154570128
447,231633.13359224738
827,220890.18838243047
1649,214206.95582112332
682,135175.33671958
2698,113989.05533244822
494,179465.51222079725
214,93220.97930844745
2441,232270.59835163434
2679,110982.84794843337
1336,109654.60992819816
465,182167.69969125034
1524,170016.51175412443
2543,118503.3876120993
631,136645.36331671104
2452,318752.34662074875
228,166760.60612389923
126,177375.5391348668
1092,236534.70474122523
1122,218953.0147738536
932,210643.22504783876
1980,30281.62018393865
2171,106319.65755189746
551,172843.98825988988
2768,177528.50231895142
2056,102676.22125156783
1159,328514.82653434714
2645,127442.26530681539
1174,187217.9382930172
2266,212236.18755672558
2462,371248.1977466736
1219,146663.87573170243
2922,182901.60957057343
118,146588.1815220376
474,179430.1317246667
2576,153558.62946258485
872,269654.26567919634
1077,248247.46034107206
1536,167328.03015106032
1150,123876.24191765732
2341,309821.80613392685
1931,179534.39580557926
2785,132672.05924186215
2538,123485.82048164413
597,200926.34912508773
464,231821.56720412173
233,246295.86289064144
2169,111067.05881327472
2123,186612.39056925674
1867,165396.22724299657
137,224750.02595585643
515,225064.55082392844
933,107567.7271635565
2784,181836.68322082236
972,195546.3514521385
599,158128.45705196902
2614,133200.61119116703
2582,129316.16048584029
1409,151904.42063216842
175,100906.63652851363
352,259688.56066284527
976,93024.06841552793
2134,195526.43322593148
984,121673.13874445658
2396,357482.23001069634
1673,144257.04219020891
404,122766.81095781317
607,160839.61879773275
814,147574.81715248758
868,190887.2401409276
2271,215333.59048157686
1633,260944.28087495535
337,178667.91904532758
2765,206571.56136691873
1746,231517.35786238802
368,343424.5351722017
2806,203558.5998606152
1662,183482.6097318076
1234,212478.6188672094
1373,136725.6452395568
1672,116768.50401971978
1939,113156.53722009156
